Time,Pressure,deltaTime,deltaPress,Sum_1,Sum_2,Sn
4.8,3640.97363,2.4,-2.84619,6.58262468212,0.875468737354,7.45809341948
7.2,3638.12744,4.8,-4.60278,6.58594128349,1.56861591791,8.15455720141
9.6,3636.37085,7.2,-5.86157,6.58924692137,1.97408102602,8.56332794739
12.0,3635.11206,9.6,-6.84619,6.592541668,2.26176309847,8.85430476647
14.4,3634.12744,12.0,-7.65063,6.59582559491,2.48490664979,9.0807322447
16.8,3633.323,14.4,-8.32373,6.59909877294,2.66722820658,9.26632697952
19.2,3632.6499,16.8,-8.90674,6.60236127221,2.82137888641,9.42374015862
21.6,3632.06689,19.2,-9.42016,6.60561316219,2.95491027903,9.56052344122
24.0,3631.55347,21.6,-9.87842,6.60885451164,3.07269331469,9.68154782633
26.4,3631.09521,24.0,-10.29175,6.61208538869,3.17805383035,9.79013921904
28.8,3630.68188,26.4,-10.66772,6.61530586077,3.27336401015,9.88866987093
31.2,3630.30591,28.8,-11.01245,6.61851599471,3.36037538714,9.97889138185
33.6,3629.96118,31.2,-11.3396,6.62171585664,3.44041809482,10.0621339515
36.0,3629.63403,33.6,-11.6333,6.62490551211,3.51452606697,10.1394315791
38.4,3629.34033,36.0,-11.91137,6.62808502602,3.58351893846,10.2116039645
40.8,3629.06226,38.4,-12.16772,6.63125446265,3.64805745959,10.2793119222
43.2,3628.80591,40.8,-12.41211,6.63441388568,3.70868208141,10.3430959671
45.6,3628.56152,43.2,-12.64233,6.63756335819,3.76584049525,10.4034038534
48.0,3628.3313,45.6,-12.85986,6.64070294266,3.81990771652,10.4606106592
50.4,3628.11377,48.0,-13.06616,6.64383270097,3.87120101091,10.5150337119
52.8,3627.90747,50.4,-13.26196,6.64695269446,3.91999117508,10.5669438695
55.2,3627.71167,52.8,-13.44848,6.65006298385,3.96651119071,10.6165741746
57.6,3627.52515,55.2,-13.62646,6.65316362933,4.01096295328,10.6641265826
60.0,3627.34717,57.6,-13.79663,6.65625469052,4.0535225677,10.7097772582
62.4,3627.177,60.0,-13.95947,6.65933622648,4.09434456222,10.7536807887
64.8,3627.01416,62.4,-14.11572,6.66240829575,4.13356527538,10.7959735711
67.2,3626.85791,64.8,-14.26587,6.6654709563,4.17130560336,10.8367765597
69.6,3626.70776,67.2,-14.4104,6.66852426559,4.20767324753,10.8761975131
72.0,3626.56323,69.6,-14.5498,6.67156828056,4.24276456734,10.9143328479
74.4,3626.42383,72.0,-14.68432,6.67460305761,4.27666611902,10.9512691766
76.8,3626.28931,74.4,-14.81445,6.67762865265,4.30945594184,10.9870845945
79.2,3626.15918,76.8,-14.94043,6.68064512108,4.34120464015,11.0218497612
81.6,3626.0332,79.2,-15.06225,6.68365251777,4.37197629882,11.0556288166
84.0,3625.91138,81.6,-15.18066,6.68665089715,4.40182926197,11.0884801591
86.4,3625.79297,84.0,-15.29565,6.68964031311,4.43081679884,11.120457112
88.8,3625.67798,86.4,-15.40722,6.6926208191,4.45898767581,11.1516084949
91.2,3625.56641,88.8,-15.51611,6.69559246806,4.48638665,11.1819791181
93.6,3625.45752,91.2,-15.62207,6.69855531248,4.51305489708,11.2116102096
96.0,3625.35156,93.6,-15.72534,6.70150940438,4.53903038348,11.2405397879
98.4,3625.24829,96.0,-15.82617,6.70445479532,4.56434819147,11.2688029868
100.8,3625.14746,98.4,-15.92456,6.70739153641,4.58904080406,11.2964323405
103.2,3625.04907,100.8,-16.02075,6.71031967829,4.61313835564,11.3234580339
105.6,3624.95288,103.2,-16.11499,6.71323927118,4.63666885305,11.3499081242
108.0,3624.85864,105.6,-16.20727,6.71615036486,4.65965837127,11.3758087361
110.4,3624.76636,108.0,-16.2976,6.71905300866,4.68213122712,11.4011842358
112.8,3624.67603,110.4,-16.38623,6.72194725151,4.70411013384,11.4260573853
115.2,3624.5874,112.8,-16.47314,6.72483314188,4.72561633906,11.4504494809
117.6,3624.50049,115.2,-16.55859,6.72771072784,4.74666974826,11.4743804761
120.0,3624.41504,117.6,-16.64258,6.73058005706,4.76728903546,11.4978690925
122.4,3624.33105,120.0,-16.72509,6.73344117678,4.78749174278,11.5209329196
124.8,3624.24854,122.4,-16.80615,6.73629413384,4.80729437008,11.5435885039
127.2,3624.16748,124.8,-16.88598,6.73913897469,4.82671245594,11.5658514306
129.6,3624.08765,127.2,-16.9646,6.74197574537,4.84576065091,11.5877363963
132.0,3624.00903,129.6,-17.04199,6.74480449154,4.86445278392,11.6092572755
134.4,3623.93164,132.0,-17.11841,6.74762525847,4.88280192259,11.6304271811
136.8,3623.85522,134.4,-17.1936,6.75043809106,4.90082042809,11.6512585191
139.2,3623.78003,136.8,-17.26806,6.7532430338,4.91852000519,11.671763039
141.6,3623.70557,139.2,-17.34131,6.75604013084,4.9359117479,11.6919518787
144.0,3623.63232,141.6,-17.41357,6.75882942594,4.95300618126,11.7118356072
146.4,3623.56006,144.0,-17.4851,6.76161096252,4.96981329958,11.7314242621
148.8,3623.48853,146.4,-17.55591,6.7643847836,4.98634260153,11.7507273851
151.2,3623.41772,148.8,-17.62573,6.76715093188,5.0026031224,11.7697540543
153.6,3623.3479,151.2,-17.69458,6.76990944969,5.01860346375,11.7885129134
156.0,3623.27905,153.6,-17.76294,6.772660379,5.03435182071,11.8070121997
158.4,3623.21069,156.0,-17.83056,6.77540376146,5.04985600725,11.8252597687
160.8,3623.14307,158.4,-17.89746,6.77813963836,5.06512347938,11.8432631177
163.2,3623.07617,160.8,-17.96362,6.78086805065,5.08016135674,11.8610294074
165.6,3623.01001,163.2,-18.02905,6.78358903896,5.09497644253,11.8785654815
168.0,3622.94458,165.6,-18.09399,6.78630264357,5.10957524195,11.8958778855
170.4,3622.87964,168.0,-18.15844,6.78900890446,5.1239639794,11.9129728839
172.8,3622.81519,170.4,-18.22217,6.79170786127,5.1381486144,11.9298564757
175.2,3622.75146,172.8,-18.2854,6.79439955331,5.15213485637,11.9465344097
177.6,3622.68823,175.2,-18.34814,6.79708401959,5.1659281785,11.9630121981
180.0,3622.62549,177.6,-18.41015,6.7997612988,5.17953383056,11.9792951294
182.4,3622.56348,180.0,-18.47192,6.80243142932,5.19295685089,11.9953882802
184.8,3622.50171,182.4,-18.53296,6.80509444922,5.20620207764,12.0112965269
187.2,3622.44067,184.8,-18.59375,6.80775039629,5.21927415921,12.0270245555
189.6,3622.37988,187.2,-18.65405,6.81039930797,5.23217756404,12.042576872
192.0,3622.31958,189.6,-18.71386,6.81304122146,5.24491658982,12.0579578113
194.4,3622.25977,192.0,-18.77319,6.81567617363,5.25749537203,12.0731715457
196.8,3622.20044,194.4,-18.83203,6.81830420107,5.26991789203,12.0882220931
199.2,3622.1416,196.8,-18.89062,6.82092534008,5.28218798462,12.1031133247
201.6,3622.08301,199.2,-18.94873,6.82353962667,5.29430934515,12.1178489718
204.0,3622.0249,201.6,-19.00659,6.82614709659,5.3062855362,12.1324326328
206.4,3621.96704,204.0,-19.06396,6.82874778529,5.31811999384,12.1468677791
208.8,3621.90967,206.4,-19.12109,6.83134172795,5.32981603361,12.1611577616
211.2,3621.85254,208.8,-19.17798,6.83392895947,5.34137685601,12.1753058155
213.6,3621.79565,211.2,-19.23437,6.83650951449,5.35280555183,12.1893150663
216.0,3621.73926,213.6,-19.29028,6.83908342739,5.36410510709,12.2031885345
218.4,3621.68335,216.0,-19.34619,6.84165073227,5.37527840768,12.21692914
220.8,3621.62744,218.4,-19.40161,6.84421146296,5.38632824387,12.2305397068
223.2,3621.57202,220.8,-19.45678,6.84676565306,5.3972573144,12.2440229675
225.6,3621.51685,223.2,-19.51147,6.84931333589,5.40806823051,12.2573815664
228.0,3621.46216,225.6,-19.56616,6.85185454452,5.41876351962,12.2706180641
230.4,3621.40747,228.0,-19.62036,6.85438931178,5.42934562895,12.2837349407
232.8,3621.35327,230.4,-19.67456,6.85691767023,5.43981692882,12.296734599
235.2,3621.29907,232.8,-19.72827,6.8594396522,5.45017971586,12.3096193681
237.6,3621.24536,235.2,-19.78174,6.86195528978,5.46043621602,12.3223915058
240.0,3621.19189,237.6,-19.8352,6.8644646148,5.47058858749,12.3350532023
242.4,3621.13843,240.0,-19.88818,6.86696765887,5.48063892334,12.3476065822
244.8,3621.08545,242.4,-19.94092,6.86946445335,5.4905892542,12.3600537075
247.2,3621.03271,244.8,-19.99365,6.87195502937,5.50044155064,12.37239658
249.6,3620.97998,247.2,-20.0459,6.87443941783,5.51019772558,12.3846371434
252.0,3620.92773,249.6,-20.09814,6.87691764939,5.5198596365,12.3967772859
254.4,3620.87549,252.0,-20.15014,6.8793897545,5.52942908751,12.408818842
256.8,3620.82349,254.4,-20.2019,6.88185576338,5.53890783147,12.4207635948
259.2,3620.77173,256.8,-20.25342,6.88431570601,5.54829757182,12.4326132778
261.6,3620.72021,259.2,-20.30468,6.88676961217,5.55759996448,12.4443695766
264.0,3620.66895,261.6,-20.35595,6.88921751141,5.56681661958,12.456034131
266.4,3620.61768,264.0,-20.40698,6.89165943308,5.57594910315,12.4676085362
268.8,3620.56665,266.4,-20.45776,6.89409540628,5.58499893867,12.4790943449
271.2,3620.51587,268.8,-20.50854,6.89652545993,5.59396760865,12.4904930686
273.6,3620.46509,271.2,-20.55908,6.89894962274,5.60285655607,12.5018061788
276.0,3620.41455,273.6,-20.60937,6.90136792319,5.61166718575,12.5130351089
278.4,3620.36426,276.0,-20.65942,6.90378038957,5.62040086572,12.5241812553
280.8,3620.31421,278.4,-20.70947,6.90618704995,5.62905892846,12.5352459784
283.2,3620.26416,280.8,-20.75952,6.90858793223,5.63764267215,12.5462306044
285.6,3620.21411,283.2,-20.80908,6.91098306407,5.64615336182,12.5571364259
288.0,3620.16455,285.6,-20.85864,6.91337247297,5.65459223047,12.5679647034
290.4,3620.11499,288.0,-20.9082,6.91575618619,5.66296048014,12.5787166663
292.8,3620.06543,290.4,-20.95752,6.91813423084,5.67125928295,12.5893935138
295.2,3620.01611,292.8,-21.00659,6.9205066338,5.67948978209,12.5999964159
297.6,3619.96704,295.2,-21.05566,6.92287342178,5.68765309273,12.6105265145
300.0,3619.91797,297.6,-21.10473,6.92523462131,5.69575030296,12.6209849243
302.4,3619.8689,300.0,-21.15356,6.9275902587,5.70378247466,12.6313727334
304.8,3619.82007,302.4,-21.20239,6.9299403601,5.71175064431,12.6416910044
307.2,3619.77124,304.8,-21.25097,6.93228495147,5.71965582381,12.6519407753
309.6,3619.72266,307.2,-21.29931,6.93462405859,5.72749900127,12.6621230599
312.0,3619.67432,309.6,-21.34765,6.93695770705,5.73528114172,12.6722388488
314.4,3619.62598,312.0,-21.39599,6.93928592227,5.74300318781,12.6822891101
316.8,3619.57764,314.4,-21.44433,6.9416087295,5.75066606056,12.6922747901
319.2,3619.5293,316.8,-21.49243,6.9439261538,5.75827065994,12.7021968137
321.6,3619.4812,319.2,-21.54028,6.94623822005,5.76581786558,12.7120560856
324.0,3619.43335,321.6,-21.58838,6.94854495298,5.7733085373,12.7218534903
326.4,3619.38525,324.0,-21.63623,6.95084637714,5.78074351579,12.7315898929
328.8,3619.3374,326.4,-21.68384,6.9531425169,5.78812362309,12.74126614
331.2,3619.28979,328.8,-21.73144,6.95543339649,5.79544966318,12.7508830597
333.6,3619.24219,331.2,-21.77905,6.95771903993,5.80272242251,12.7604414624
336.0,3619.19458,333.6,-21.82666,6.95999947112,5.80994267048,12.7699421416
338.4,3619.14697,336.0,-21.87402,6.96227471378,5.81711115996,12.7793858737
340.8,3619.09961,338.4,-21.92138,6.96454479145,5.82422862773,12.7887734192
343.2,3619.05225,340.8,-21.96875,6.96680972755,5.83129579496,12.7981055225
345.6,3619.00488,343.2,-22.01611,6.96906954529,5.83831336761,12.8073829129
348.0,3618.95752,345.6,-22.06323,6.97132426778,5.84528203693,12.8166063047
350.4,3618.9104,348.0,-22.1101,6.97357391792,5.85220247977,12.8257763977
352.8,3618.86353,350.4,-22.15722,6.9758185185,5.85907535906,12.8348938776
355.2,3618.81641,352.8,-22.2041,6.97805809212,5.86590132413,12.8439594163
357.6,3618.76953,355.2,-22.25097,6.98029266126,5.87268101112,12.8529736724
360.0,3618.72266,357.6,-22.29785,6.98252224824,5.8794150433,12.8619372915
362.4,3618.67578,360.0,-22.34472,6.98474687521,5.88610403145,12.8708509067
364.8,3618.62891,362.4,-22.39135,6.9869665642,5.89274857417,12.8797151384
367.2,3618.58228,364.8,-22.43799,6.98918133708,5.8993492582,12.8885305953
369.6,3618.53564,367.2,-22.48462,6.99139121558,5.90590665875,12.8972978743
372.0,3618.48901,369.6,-22.53125,6.99359622128,5.91242133977,12.906017561
374.4,3618.44238,372.0,-22.57788,6.99579637563,5.91889385427,12.9146902299
376.8,3618.39575,374.4,-22.62426,6.99799169992,5.9253247446,12.9233164445
379.2,3618.34937,376.8,-22.67065,7.00018221532,5.9317145427,12.931896758
381.6,3618.30298,379.2,-22.71704,7.00236794285,5.93806377038,12.9404317132
384.0,3618.25659,381.6,-22.76342,7.00454890339,5.94437293957,12.948921843
386.4,3618.21021,384.0,-22.80981,7.00672511769,5.95064255259,12.9573676703
388.8,3618.16382,386.4,-22.8562,7.00889660637,5.95687310234,12.9657697087
391.2,3618.11743,388.8,-22.90234,7.0110633899,5.96306507259,12.9741284625
393.6,3618.07129,391.2,-22.94848,7.01322548862,5.96921893816,12.9824444268
396.0,3618.02515,393.6,-22.99487,7.01538292276,5.97533516518,12.9907180879
398.4,3617.97876,396.0,-23.04101,7.0175357124,5.98141421125,12.9989499237
400.8,3617.93262,398.4,-23.08716,7.01968387748,5.98745652571,13.0071404032
403.2,3617.88647,400.8,-23.1333,7.02182743784,5.99346254977,13.0152899876
405.6,3617.84033,403.2,-23.1792,7.02396641318,5.99943271676,13.0233991299
408.0,3617.79443,405.6,-23.22534,7.02610082307,6.00536745228,13.0314682753
410.4,3617.74829,408.0,-23.27148,7.02823068695,6.0112671744,13.0394978614
412.8,3617.70215,410.4,-23.31738,7.03035602415,6.01713229386,13.047488318
415.2,3617.65625,412.8,-23.36352,7.03247685387,6.02296321417,13.055440068
417.6,3617.61011,415.2,-23.40942,7.03459319519,6.02876033185,13.063353527
420.0,3617.56421,417.6,-23.45532,7.03670506707,6.03452403657,13.0712291036
422.4,3617.51831,420.0,-23.50122,7.03881248834,6.04025471128,13.0790671996
424.8,3617.47241,422.4,-23.54712,7.04091547772,6.04595273239,13.0868682101
427.2,3617.42651,424.8,-23.59301,7.04301405382,6.05161846993,13.0946325238
429.6,3617.38062,427.2,-23.63891,7.04510823512,6.05725228765,13.1023605228
432.0,3617.33472,429.6,-23.68481,7.04719803999,6.06285454319,13.1100525832
434.4,3617.28882,432.0,-23.73047,7.04928348668,6.06842558824,13.1177090749
436.8,3617.24316,434.4,-23.77636,7.05136459333,6.07396576862,13.1253303619
439.2,3617.19727,436.8,-23.82202,7.05344137797,6.07947542443,13.1329168024
441.6,3617.15161,439.2,-23.86792,7.05551385851,6.0849548902,13.1404687487
444.0,3617.10571,441.6,-23.91382,7.05758205276,6.09040449496,13.1479865477
446.4,3617.05981,444.0,-23.95947,7.0596459784,6.09582456243,13.1554705408
448.8,3617.01416,446.4,-24.00537,7.06170565304,6.10121541107,13.1629210641
451.2,3616.96826,448.8,-24.05102,7.06376109412,6.10657735421,13.1703384483
453.6,3616.92261,451.2,-24.09692,7.06581231904,6.11191070018,13.1777230192
456.0,3616.87671,453.6,-24.14258,7.06785934504,6.11721575241,13.1850750975
458.4,3616.83105,456.0,-24.18823,7.06990218929,6.12249280951,13.1923949988
460.8,3616.7854,458.4,-24.23413,7.07194086883,6.1277421654,13.1996830342
463.2,3616.7395,460.8,-24.27978,7.07397540061,6.13296410938,13.20693951
465.6,3616.69385,463.2,-24.32568,7.07600580147,6.13815892626,13.2141647277
468.0,3616.64795,465.6,-24.37134,7.07803208816,6.14332689642,13.2213589846
470.4,3616.60229,468.0,-24.41723,7.08005427731,6.14846829592,13.2285225732
472.8,3616.5564,470.4,-24.46313,7.08207238547,6.15358339658,13.2356557821
475.2,3616.5105,472.8,-24.50879,7.08408642906,6.15867246609,13.2427588952
477.6,3616.46484,475.2,-24.55468,7.08609642444,6.16373576805,13.2498321925
480.0,3616.41895,477.6,-24.60034,7.08810238784,6.16877356208,13.2568759499
482.4,3616.37329,480.0,-24.64624,7.0901043354,6.1737861039,13.2638904393
484.8,3616.32739,482.4,-24.69214,7.09210228317,6.17877364541,13.2708759286
487.2,3616.28149,484.8,-24.73779,7.09409624711,6.18373643476,13.2778326819
489.6,3616.23584,487.2,-24.78369,7.09608624306,6.1886747164,13.2847609595
492.0,3616.18994,489.6,-24.82959,7.0980722868,6.1935887312,13.291661018
494.4,3616.14404,492.0,-24.87549,7.10005439398,6.19847871649,13.2985331105
496.8,3616.09814,494.4,-24.92138,7.10203258019,6.20334490614,13.3053774863
499.2,3616.05225,496.8,-24.96728,7.10400686089,6.20818753062,13.3121943915
501.6,3616.00635,499.2,-25.01318,7.1059772515,6.21300681706,13.3189840686
504.0,3615.96045,501.6,-25.05932,7.10794376729,6.21780298932,13.3257467566
506.4,3615.91431,504.0,-25.10498,7.10990642349,6.22257626807,13.3324826916
508.8,3615.86865,506.4,-25.15112,7.11186523522,6.22732687083,13.339192106
511.2,3615.82251,508.8,-25.19702,7.1138202175,6.23205501203,13.3458752295
513.6,3615.77661,511.2,-25.24267,7.11577138528,6.23676090306,13.3525322883
516.0,3615.73096,513.6,-25.28882,7.11771875342,6.24144475238,13.3591635058
518.4,3615.68481,516.0,-25.33471,7.11966233669,6.24610676548,13.3657691022
520.8,3615.63892,518.4,-25.38061,7.12160214977,6.25074714504,13.3723492948
523.2,3615.59302,520.8,-25.42675,7.12353820725,6.25536609089,13.3789042981
525.6,3615.54688,523.2,-25.4729,7.12547052366,6.25996380014,13.3854343238
528.0,3615.50073,525.6,-25.51855,7.12739911343,6.26454046717,13.3919395806
530.4,3615.45508,528.0,-25.56445,7.12932399089,6.26909628371,13.3984202746
532.8,3615.40918,530.4,-25.61059,7.13124517031,6.27363143887,13.4048766092
535.2,3615.36304,532.8,-25.65649,7.13316266589,6.27814611923,13.4113087851
537.6,3615.31714,535.2,-25.70263,7.1350764917,6.28264050881,13.4177170005
540.0,3615.271,537.6,-25.74878,7.13698666179,6.28711478921,13.424101451
542.4,3615.22485,540.0,-25.79492,7.13889319008,6.29156913956,13.4304623296
544.8,3615.17871,542.4,-25.84106,7.14079609043,6.29600373663,13.4367998271
547.2,3615.13257,544.8,-25.8872,7.14269537664,6.30041875484,13.4431141315
549.6,3615.08643,547.2,-25.93335,7.14459106239,6.30481436631,13.4494054287
552.0,3615.04028,549.6,-25.97949,7.14648316131,6.30919074091,13.4556739022
554.4,3614.99414,552.0,-26.02539,7.14837168696,6.31354804628,13.4619197332
556.8,3614.94824,554.4,-26.07177,7.1502566528,6.31788644788,13.4681431007
559.2,3614.90186,556.8,-26.11816,7.15213807223,6.32220610902,13.4743441812
561.6,3614.85547,559.2,-26.16455,7.15401595856,6.32650719092,13.4805231495
564.0,3614.80908,561.6,-26.21093,7.15589032505,6.33078985271,13.4866801778
566.4,3614.7627,564.0,-26.25805,7.15776118485,6.3350542515,13.4928154364
568.8,3614.71558,566.4,-26.30444,7.15962855108,6.33930054238,13.4989290935
571.2,3614.66919,568.8,-26.35083,7.16149243675,6.34352887849,13.5050213152
573.6,3614.6228,571.2,-26.39697,7.16335285481,6.34773941103,13.5110922658
576.0,3614.57666,573.6,-26.44336,7.16520981814,6.35193228929,13.5171421074
578.4,3614.53027,576.0,-26.48974,7.16706333955,6.3561076607,13.5231710002
580.8,3614.48389,578.4,-26.53637,7.16891343177,6.36026567084,13.5291791026
583.2,3614.43726,580.8,-26.58301,7.17076010748,6.36440646351,13.535166571
585.6,3614.39062,583.2,-26.62939,7.17260337925,6.36853018069,13.5411335599
588.0,3614.34424,585.6,-26.67602,7.17444325963,6.37263696265,13.5470802223
590.4,3614.29761,588.0,-26.72265,7.17627976106,6.3767269479,13.553006709
592.8,3614.25098,590.4,-26.76953,7.17811289593,6.38080027329,13.5589131692
595.2,3614.2041,592.8,-26.81616,7.17994267657,6.38485707398,13.5647997506
597.6,3614.15747,595.2,-26.86352,7.18176911523,6.38889748352,13.5706665987
600.0,3614.11011,597.6,-26.91064,7.18359222409,6.39292163382,13.5765138579
602.4,3614.06299,600.0,-26.95801,7.18541201527,6.39692965522,13.5823416705
604.8,3614.01562,602.4,-27.00537,7.18722850082,6.40092167649,13.5881501773
607.2,3613.96826,604.8,-27.05298,7.18904169274,6.40489782487,13.5939395176
609.6,3613.92065,607.2,-27.10034,7.19085160294,6.40885822608,13.599709829
612.0,3613.87329,609.6,-27.14795,7.19265824329,6.41280300437,13.6054612477
614.4,3613.82568,612.0,-27.19555,7.19446162557,6.41673228251,13.6111939081
616.8,3613.77808,614.4,-27.24316,7.19626176151,6.42064618183,13.6169079433
619.2,3613.73047,616.8,-27.29101,7.19805866279,6.42454482225,13.622603485
621.6,3613.68262,619.2,-27.33862,7.19985234101,6.42842832228,13.6282806633
624.0,3613.63501,621.6,-27.38647,7.2016428077,6.43229679905,13.6339396068
626.4,3613.58716,624.0,-27.43432,7.20343007435,6.43615036837,13.6395804427
628.8,3613.53931,626.4,-27.48217,7.20521415238,6.43998914468,13.6452032971
631.2,3613.49146,628.8,-27.53003,7.20699505314,6.44381324111,13.6508082943
633.6,3613.4436,631.2,-27.57788,7.20877278793,6.44762276953,13.6563955575
636.0,3613.39575,633.6,-27.62597,7.21054736799,6.4514178405,13.6619652085
638.4,3613.34766,636.0,-27.67407,7.21231880449,6.45519856334,13.6675173678
640.8,3613.29956,638.4,-27.72192,7.21408710855,6.45896504614,13.6730521547
643.2,3613.25171,640.8,-27.77002,7.21585229123,6.46271739575,13.678569687
645.6,3613.20361,643.2,-27.81836,7.21761436353,6.46645571786,13.6840700814
648.0,3613.15527,645.6,-27.86645,7.21937333639,6.47018011696,13.6895534533
